20.29
20.04
19.71
19.36
19.0
18.57
17.91
16.83
15.21
13.1
10.64
7.96
5.15
2.19
-0.88
-4.03
-7.12
-10.07
-12.82
-15.48
-18.25
-21.36
-24.97
-29.07
-33.44
-37.67
-41.13
-43.16
-43.1
-40.52
-35.34
-27.95
-19.08
-9.71
-0.73
7.15
13.52
18.23
21.3
22.83
23.04
22.19
20.66
18.83
17.08
15.66
14.65
14.05
13.7
13.39
12.93
12.15
11.02
9.68
8.34
7.24
6.48
5.94
5.33
4.35
2.8
0.78
-1.49
-3.69
-5.62
-7.22
-8.58
-9.89
-11.4
-13.35
-15.92
-19.16
-22.88
-26.65
-29.79
-31.56
-31.37
-28.95
-24.44
-18.33
-11.28
-4.04
2.77
8.69
13.4
16.78
18.81
19.59
19.3
18.22
16.69
15.09
13.73
12.81
12.34
12.21
12.24
12.3
12.38
12.53
12.76
12.92
12.69
11.67
9.61
6.58
2.99
-0.55
-3.48
-5.56
-6.94
-8.13
-9.74
-12.25
-15.93
-20.72
-26.28
-32.01
-37.02
-40.21
-40.47
-37.1
-30.19
-20.77
-10.49
-0.99
6.71
12.5
17.02
21.0
24.71
27.72
29.19
28.42
25.35
20.65
15.52
11.18
8.46
7.6
8.32
10.01
12.01
13.75
14.83
15.06
14.32
12.61
9.99
6.72
3.18
-0.17
-2.98
-5.1
-6.7
-8.11
-9.71
-11.8
-14.58
-18.2
-22.83
-28.45
-34.75
-40.92
-45.76
-48.1
-47.24
-43.21
-36.75
-28.88
-20.49
-12.05
-3.7
4.44
12.08
18.68
23.63
26.54
27.44
26.76
25.16
23.34
21.81
20.85
20.48
20.55
20.83
21.09
21.2
21.11
20.8
20.24
19.34
17.99
16.12
13.8
11.21
8.57
6.0
3.53
1.0
-1.71
-4.71
-7.96
-11.38
-14.85
-18.31
-21.8
-25.41
-29.23
-33.26
-37.35
-41.09
-43.84
-44.84
-43.42
-39.25
-32.48
-23.76
-14.08
-4.47
4.3
11.8
17.87
22.54
25.83
27.76
28.42
28.07
27.15
26.17
25.55
25.47
25.81
26.29
26.64
26.72
26.53
26.15
25.64
25.0
24.11
22.88
21.25
19.22
16.87
14.28
11.5
8.51
5.26
1.75
-1.95
-5.65
-9.1
-12.09
-14.53
-16.58
-18.6
-21.02
-24.26
-28.49
-33.58
-39.1
-44.32
-48.34
-50.27
-49.39
-45.33
-38.23
-28.75
-17.98
-7.18
2.57
10.51
16.42
20.45
22.96
24.28
24.63
24.1
22.81
21.04
19.2
17.76
17.1
17.37
18.42
19.96
21.58
22.9
23.6
23.48
22.41
20.42
17.65
14.38
10.95
7.7
4.87
2.53
0.57
-1.19
-2.94
-4.76
-6.69
-8.78
-11.09
-13.73
-16.79
-20.29
-24.18
-28.33
-32.56
-36.61
-40.13
-42.61
-43.42
-42.05
-38.24
-32.19
-24.52
-16.13
-7.87
-0.29
6.35
12.01
16.67
20.14
22.19
22.65
21.59
19.45
16.87
14.52
12.85
11.97
11.76
11.98
12.44
13.06
13.76
14.41
14.77
14.59
13.65
11.94
9.61
6.91
4.08
1.22
-1.63
-4.5
-7.36
-10.1
-12.63
-14.87
-16.93
-19.02
-21.41
-24.34
-27.83
-31.58
-34.96
-37.15
-37.32
-34.96
-30.02
-22.9
-14.35
-5.23
3.72
11.92
18.94
24.46
28.26
30.27
30.59
29.53
27.55
25.14
22.81
20.94
19.82
19.52
19.93
20.76
21.58
22.04
21.94
21.26
20.16
18.83
17.39
15.81
13.91
11.51
8.5
4.93
0.98
-3.07
-6.99
-10.57
-13.7
-16.31
-18.45
-20.35
-22.38
-24.98
-28.51
-33.06
-38.32
-43.55
-47.79
-50.03
-49.56
-46.05
-39.65
-30.94
-20.81
-10.32
-0.48
7.88
14.31
18.71
21.31
22.54
22.9
22.77
22.43
22.01
21.58
21.18
20.83
20.58
20.45
20.46
20.6
20.85
21.12
21.29
21.18
20.57
19.28
17.21
14.44
11.25
8.02
5.13
2.74
0.77
-1.14
-3.45
-6.44
-10.1
-14.1
-17.98
-21.33
-24.07
-26.47
-29.06
-32.42
-36.95
-42.6
-48.84
-54.7
-59.0
-60.69
-59.16
-54.41
-47.04
-38.01
-28.42
-19.19
-10.95
-4.02
1.44
5.39
7.78
8.6
8.02
6.4
4.42
2.86
2.48
3.77
6.92
11.73
17.78
24.48
31.16
37.19
42.04
45.36
47.07
47.37
46.55
44.9
42.54
39.52
35.92
31.98
28.1
24.65
21.74
19.15
16.4
12.96
8.61
3.55
-1.69
-6.45
-10.33
-13.3
-15.73
-18.16
-21.07
-24.74
-29.19
-34.14
-39.1
-43.33
-46.03
-46.4
-43.94
-38.58
-30.81
-21.52
-11.8
-2.61
5.37
11.8
16.62
19.95
22.0
23.01
23.19
22.76
21.92
20.82
19.69
18.7
18.05
17.88
18.21
18.92
19.77
20.46
20.71
20.39
19.47
18.02
16.08
13.73
11.06
8.26
5.6
3.36
1.65
0.29
-1.18
-3.23
-6.11
-9.71
-13.6
-17.28
-20.47
-23.26
-26.01
-29.11
-32.72
-36.58
-40.13
-42.6
-43.29
-41.75
-37.87
-31.92
-24.47
-16.25
-7.99
-0.31
6.39
11.93
16.22
19.27
21.09
21.7
21.23
19.94
18.18
16.34
14.76
13.66
13.13
13.18
13.76
14.72
15.78
16.62
16.87
16.3
14.86
12.71
10.13
7.32
4.35
1.16
-2.34
-6.17
-10.16
-14.05
-17.57
-20.56
-23.0
-25.02
-26.82
-28.66
-30.76
-33.24
-35.93
-38.31
-39.56
-38.78
-35.33
-29.05
-20.41
-10.4
-0.18
9.21
17.04
23.01
27.18
29.79
31.23
31.85
31.92
31.59
30.91
29.85
28.43
26.76
25.0
23.34
21.91
20.76
19.85
19.1
18.44
17.79
17.1
16.3
15.28
13.9
12.02
9.54
6.44
2.8
-1.21
-5.32
-9.22
-12.7
-15.71
-18.48
-21.41
-24.93
-29.22
-34.11
-39.0
-43.08
-45.5
-45.66
-43.3
-38.52
-31.7
-23.38
-14.21
-4.87
4.02
12.0
18.77
24.23
28.35
31.15
32.64
32.9
32.17
30.8
29.21
27.74
26.5
25.47
24.53
23.66
22.98
22.68
22.81
23.18
23.35
22.82
21.28
18.75
15.54
12.14
8.91
6.01
3.39
0.83
-1.87
-4.82
-7.96
-11.12
-14.07
-16.74
-19.22
-21.84
-25.02
-29.15
-34.25
-39.92
-45.3
-49.33
-51.03
-49.78
-45.46
-38.4
-29.29
-19.04
-8.57
1.22
9.66
16.31
20.99
23.82
25.11
25.3
24.88
24.28
23.84
23.71
23.83
24.04
24.14
23.99
23.66
23.29
23.04
22.93
22.83
22.48
21.69
20.35
18.49
16.22
13.63
10.8
7.77
4.64
1.55
-1.38
-4.07
-6.58
-9.04
-11.65
-14.56
-17.89
-21.71
-26.1
-31.07
-36.49
-42.02
-47.03
-50.76
-52.47
-51.61
-48.01
-41.87
-33.69
-24.19
-14.2
-4.51
4.16
11.31
16.7
20.32
22.4
23.22
23.1
22.29
21.09
19.78
18.67
17.98
17.77
17.97
18.36
18.72
18.94
19.0
18.95
18.79
18.48
17.85
16.68
14.79
12.13
8.87
5.33
1.88
-1.19
-3.85
-6.28
-8.8
-11.73
-15.19
-19.16
-23.51
-28.07
-32.62
-36.82
-40.15
-41.92
-41.51
-38.53
-33.11
-25.8
-17.42
-8.84
-0.71
6.6
12.87
17.96
21.74
24.06
24.91
24.46
23.02
21.1
19.22
17.83
17.17
17.2
17.65
18.15
18.35
18.14
17.62
17.0
16.43
15.84
14.92
13.28
10.71
7.25
3.3
-0.68
-4.32
-7.55
-10.51
-13.48
-16.68
-20.21
-24.11
-28.35
-32.88
-37.49
-41.73
-44.85
-45.98
-44.41
-39.77
-32.28
-22.62
-11.85
-1.09
8.67
16.76
22.89
27.12
29.74
31.13
31.64
31.45
30.64
29.26
27.42
25.34
23.34
21.73
20.73
20.38
20.61
21.21
21.9
22.36
22.27
21.41
19.7
17.2
14.08
10.51
6.58
2.31
-2.31
-7.21
-12.2
-16.98
-21.3
-24.98
-28.05
-30.66
-33.05
-35.47
-38.08
-40.9
-43.63
-45.64
-46.03
-43.94
-38.91
-31.12
-21.4
-10.93
-0.81
8.25
15.98
22.39
27.48
31.19
33.4
34.17
33.78
32.74
31.56
30.55
29.73
28.94
27.95
26.7
25.33
24.12
23.32
23.03
23.1
23.16
22.82
21.69
19.61
16.63
12.99
9.07
5.21
1.63
-1.65
-4.79
-8.0
-11.44
-15.09
-18.77
-22.33
-25.76
-29.27
-33.14
-37.47
-41.98
-45.96
-48.45
-48.6
-45.93
-40.44
-32.56
-22.96
-12.4
-1.71
8.3
16.9
23.53
27.97
30.35
31.06
30.64
29.6
28.36
27.25
26.5
26.21
26.31
26.63
26.89
26.85
26.43
25.67
24.68
23.5
22.15
20.58
18.79
16.82
14.78
12.69
10.49
8.08
5.38
2.43
-0.69
-3.82
-6.88
-9.84
-12.74
-15.59
-18.41
-21.2
-24.06
-27.2
-30.83
-35.08
-39.75
-44.28
-47.84
-49.52
-48.6
-44.87
-38.56
-30.34
-21.09
-11.63
-2.67
5.36
12.18
17.68
21.79
24.55
26.0
26.3
25.69
24.51
23.14
21.92
21.12
20.87
21.12
21.68
22.24
22.46
22.1
21.08
19.49
17.55
15.46
13.33
11.11
8.72
6.09
3.32
0.54
-2.09
-4.55
-6.93
-9.38
-11.99
-14.76
-17.64
-20.6
-23.71
-27.11
-30.9
-34.96
-38.84
-41.86
-43.3
-42.65
-39.73
-34.72
-28.06
-20.3
-11.96
-3.55
4.49
11.69
17.63
22.04
24.79
26.01
25.95
24.97
23.43
21.68
19.99
18.58
17.57
16.98
16.74
16.74
16.85
16.92
16.84
16.48
15.73
14.47
12.63
10.2
7.23
3.86
0.27
-3.3
-6.65
-9.72
-12.58
-15.41
-18.43
-21.81
-25.62
-29.83
-34.27
-38.65
-42.5
-45.18
-45.96
-44.23
-39.74
-32.67
-23.68
-13.67
-3.63
5.65
13.62
19.98
24.62
27.58
29.0
29.13
28.35
27.05
25.59
24.27
23.27
22.69
22.5
22.58
22.71
22.65
22.2
21.29
19.95
18.34
16.62
14.89
13.13
11.22
8.97
6.28
3.14
-0.37
-4.03
-7.61
-10.9
-13.82
-16.44
-19.04
-22.0
-25.65
-30.12
-35.27
-40.63
-45.51
-49.12
-50.72
-49.8
-46.13
-39.85
-31.43
-21.63
-11.39
-1.61
7.01
14.08
19.56
23.6
26.43
28.25
29.15
29.25
28.76
27.98
27.2
26.6
26.2
25.83
25.37
24.74
24.06
23.49
23.13
22.94
22.71
22.16
21.09
19.4
17.14
14.44
11.43
8.3
5.18
2.15
-0.73
-3.5
-6.23
-9.01
-11.88
-14.85
-17.81
-20.73
-23.62
-26.68
-30.14
-34.18
-38.77
-43.6
-48.04
-51.26
-52.45
-51.02
-46.72
-39.81
-30.94
-21.02
-11.01
-1.73
6.33
13.02
18.39
22.61
25.78
27.93
29.1
29.4
29.07
28.44
27.77
27.18
26.63
26.01
25.26
24.49
23.91
23.65
23.72
23.91
23.88
23.33
22.06
20.06
17.48
14.53
11.47
8.48
5.67
3.01
0.4
-2.3
-5.19
-8.23
-11.26
-14.06
-16.41
-18.29
-19.89
-21.62
-24.0
-27.42
-31.94
-37.18
-42.34
-46.39
-48.4
-47.78
-44.38
-38.47
-30.59
-21.46
-11.88
-2.59
5.71
12.56
17.71
21.19
23.18
23.97
23.84
23.08
21.96
20.76
19.65
18.74
18.02
17.37
16.68
15.9
15.07
14.33
13.82
13.61
13.61
13.59
13.24
12.27
10.53
8.04
5.0
1.62
-1.86
-5.27
-8.52
-11.54
-14.29
-16.79
-19.14
-21.52
-24.15
-27.26
-30.9
-34.88
-38.66
-41.45
-42.41
-40.89
-36.7
-30.21
-22.26
-13.83
-5.82
1.23
7.11
11.84
15.5
18.13
19.73
20.33
20.07
19.21
18.08
16.99
16.13
15.54
15.21
15.1
15.16
15.34
15.52
15.52
15.15
14.34
13.12
11.64
10.03
8.38
6.63
4.64
2.3
-0.44
-3.54
-6.92
-10.52
-14.32
-18.37
-22.72
-27.36
-32.13
-36.68
-40.46
-42.83
-43.2
-41.27
-37.07
-30.96
-23.47
-15.12
-6.44
2.04
9.81
16.36
21.33
24.58
26.25
26.64
26.13
25.02
23.61
22.13
20.85
19.99
19.65
19.8
20.21
20.53
20.5
19.95
18.95
17.64
16.17
14.58
12.78
10.62
8.02
5.08
2.0
-1.0
-3.85
-6.62
-9.47
-12.54
-15.82
-19.24
-22.73
-26.3
-30.05
-34.07
-38.27
-42.29
-45.61
-47.57
-47.63
-45.38
-40.67
-33.61
-24.62
-14.43
-3.99
5.7
13.77
19.71
23.38
25.07
25.31
24.75
24.03
23.6
23.73
24.42
25.48
26.6
27.46
27.83
27.6
26.82
25.68
24.32
22.88
21.41
19.88
18.27
16.6
14.9
13.19
11.43
9.5
7.26
4.63
1.65
-1.54
-4.78
-8.01
-11.34
-15.01
-19.32
-24.52
-30.68
-37.66
-45.0
-51.9
-57.3
-60.07
-59.32
-54.76
-46.82
-36.55
-25.34
-14.5
-5.0
2.7
8.53
12.7
15.55
17.5
18.92
20.11
21.31
22.59
23.9
25.09
26.01
26.57
26.75
26.6
26.18
25.55
24.76
23.81
22.73
21.49
20.1
18.53
16.79
14.92
12.92
10.75
8.37
5.74
2.84
-0.31
-3.62
-6.92
-10.03
-12.81
-15.17
-17.18
-19.04
-21.1
-23.76
-27.29
-31.66
-36.45
-40.81
-43.75
-44.37
-42.21
-37.33
-30.29
-21.87
-12.93
-4.17
3.97
11.19
17.34
22.29
25.91
28.13
29.02
28.81
27.88
26.63
25.39
24.3
23.34
22.42
21.48
20.6
19.93
19.54
19.37
19.19
18.72
17.74
16.19
14.16
11.75
9.05
6.07
2.87
-0.38
-3.45
-6.16
-8.49
-10.66
-13.02
-15.9
-19.46
-23.68
-28.3
-32.99
-37.29
-40.63
-42.32
-41.69
-38.26
-32.07
-23.7
-14.21
-4.79
3.62
10.48
15.69
19.38
21.7
22.73
22.56
21.35
19.5
17.49
15.81
14.76
14.32
14.27
14.26
14.02
13.42
12.49
11.4
10.34
9.4
8.59
7.68
6.37
4.42
1.73
-1.54
-5.09
-8.62
-11.97
-15.2
-18.53
-22.2
-26.35
-30.88
-35.45
-39.53
-42.52
-43.82
-43.0
-39.81
-34.3
-26.87
-18.2
-9.11
-0.41
7.29
13.63
18.52
22.01
24.21
25.26
25.33
24.68
23.67
22.68
22.0
21.72
21.77
21.96
22.07
21.94
21.51
20.77
19.75
18.5
17.02
15.25
13.05
10.25
6.8
2.82
-1.36
-5.33
-8.76
-11.62
-14.2
-17.01
-20.57
-25.09
-30.43
-36.06
-41.22
-45.15
-47.21
-46.97
-44.26
-39.15
-31.94
-23.2
-13.66
-4.16
4.61
12.17
18.39
23.31
27.02
29.57
30.92
31.06
30.14
28.56
26.85
25.53
24.88
24.86
25.12
25.2
24.75
23.64
22.0
20.14
18.38
16.93
15.73
14.54
12.95
10.64
7.45
3.47
-1.03
-5.74
-10.37
-14.75
-18.82
-22.58
-26.1
-29.5
-32.88
-36.21
-39.29
-41.66
-42.66
-41.6
-37.99
-31.77
-23.37
-13.56
-3.31
6.48
15.08
22.08
27.25
30.61
32.29
32.53
31.68
30.16
28.43
26.91
25.82
25.25
25.04
24.95
24.71
24.15
23.23
22.04
20.73
19.37
17.95
16.39
14.61
12.54
10.18
7.52
4.54
1.2
-2.52
-6.49
-10.48
-14.17
-17.4
-20.21
-22.96
-26.13
-30.13
-35.01
-40.34
-45.29
-48.84
-50.04
-48.29
-43.48
-36.02
-26.76
-16.76
-7.1
1.37
8.22
13.45
17.36
20.3
22.53
24.03
24.68
24.4
23.35
21.91
20.56
19.66
19.22
19.01
18.73
18.21
17.51
16.87
16.44
16.17
15.77
14.87
13.24
10.84
7.89
4.73
1.64
-1.26
-4.01
-6.73
-9.56
-12.54
-15.71
-19.13
-22.93
-27.18
-31.83
-36.5
-40.51
-42.98
-43.1
-40.45
-35.15
-27.77
-19.19
-10.28
-1.69
6.1
12.77
18.07
21.8
23.86
24.31
23.42
21.58
19.29
17.01
15.15
13.95
13.5
13.67
14.25
14.95
15.57
16.02
16.21
15.99
15.11
13.32
10.49
6.82
2.72
-1.26
-4.73
-7.61
-10.09
-12.58
-15.41
-18.77
-22.7
-27.09
-31.76
-36.4
-40.42
-43.06
-43.46
-40.98
-35.5
-27.54
-18.14
-8.47
0.49
8.2
14.61
19.87
24.14
27.38
29.45
30.21
29.75
28.4
26.64
24.92
23.51
22.4
21.47
20.58
19.71
18.93
18.32
17.86
17.41
16.73
15.63
14.05
12.05
9.74
7.16
4.27
1.02
-2.57
-6.34
-10.08
-13.62
-16.95
-20.3
-24.01
-28.32
-33.27
-38.52
-43.38
-46.99
-48.46
-47.1
-42.66
-35.42
-26.1
-15.79
-5.61
3.54
11.18
17.24
21.94
25.54
28.18
29.82
30.38
29.87
28.51
26.72
25.0
23.72
23.0
22.73
22.64
22.48
22.08
21.41
20.49
19.41
18.21
16.86
15.26
13.27
10.75
7.66
4.11
0.29
-3.52
-7.07
-10.26
-13.11
-15.78
-18.49
-21.51
-25.04
-29.23
-34.11
-39.53
-45.06
-50.05
-53.6
-54.78
-52.86
-47.51
-39.0
-28.18
-16.29
-4.67
5.59
13.84
19.94
24.18
27.0
28.83
29.94
30.43
30.32
29.7
28.74
27.68
26.7
25.9
25.31
24.92
24.76
24.86
25.18
25.55
25.68
25.21
23.91
21.72
18.81
15.46
11.95
8.48
5.14
1.93
-1.21
-4.31
-7.4
-10.49
-13.59
-16.72
-19.96
-23.42
-27.2
-31.35
-35.82
-40.41
-44.76
-48.35
-50.59
-50.88
-48.77
-44.09
-36.98
-27.96
-17.79
-7.35
2.51
11.09
17.94
22.84
25.84
27.19
27.29
26.55
25.35
23.92
22.36
20.71
18.98
17.2
15.47
14.01
13.13
13.21
14.51
17.0
20.16
23.13
24.91
24.76
22.52
18.62
13.86
9.0
4.41
0.06
-4.35
-9.05
-13.98
-18.76
-22.89
-26.01
-28.17
-29.81
-31.56
-33.88
-36.76
-39.66
-41.63
-41.75
-39.49
-34.91
-28.57
-21.28
-13.67
-6.11
1.24
8.26
14.58
19.69
23.09
24.53
24.23
22.73
20.7
18.68
16.87
15.28
13.79
12.38
11.17
10.35
10.07
10.37
11.14
12.15
13.0
13.18
12.18
9.65
5.64
0.68
-4.38
-8.71
-11.88
-14.09
-16.07
-18.72
-22.72
-28.15
-34.47
-40.59
-45.29
-47.44
-46.39
-42.06
-34.96
-26.03
-16.32
-6.78
2.0
9.7
16.26
21.66
25.92
29.02
30.93
31.74
31.55
30.55
28.94
26.96
24.91
23.09
21.7
20.81
20.26
19.8
19.21
18.36
17.31
16.15
14.9
13.43
11.48
8.78
5.29
1.21
-3.01
-6.92
-10.2
-12.86
-15.17
-17.65
-20.84
-25.11
-30.52
-36.68
-42.87
-48.11
-51.46
-52.19
-49.95
-44.79
-37.15
-27.73
-17.39
-7.0
2.7
11.2
18.31
24.03
28.45
31.6
33.43
33.94
33.29
31.94
30.49
29.5
29.17
29.37
29.67
29.63
29.05
28.03
26.82
25.62
24.41
23.01
21.14
18.7
15.77
12.57
9.32
6.09
2.81
-0.61
-4.22
-7.91
-11.54
-14.99
-18.26
-21.49
-24.92
-28.77
-33.16
-38.03
-43.11
-47.85
-51.47
-53.08
-51.96
-47.71
-40.48
-30.99
-20.3
-9.5
0.49
9.15
16.27
21.84
25.94
28.69
30.27
30.94
31.03
30.84
30.54
30.16
29.64
28.93
28.1
27.31
26.77
26.6
26.74
26.95
26.89
26.19
24.58
22.01
18.65
14.82
10.96
7.38
4.21
1.34
-1.49
-4.55
-7.87
-11.33
-14.7
-17.83
-20.74
-23.67
-26.95
-30.82
-35.34
-40.27
-45.16
-49.39
-52.27
-53.18
-51.61
-47.33
-40.4
-31.24
-20.61
-9.53
0.93
9.9
16.87
21.75
24.83
26.57
27.41
27.59
27.24
26.41
25.22
23.92
22.81
22.14
21.98
22.19
22.51
22.66
22.4
21.62
20.34
18.68
16.8
14.84
12.88
10.92
8.87
6.67
4.24
1.56
-1.31
-4.33
-7.42
-10.57
-13.74
-16.98
-20.31
-23.8
-27.5
-31.42
-35.41
-39.17
-42.2
-43.94
-43.87
-41.64
-37.19
-30.7
-22.64
-13.69
-4.6
3.92
11.31
17.26
21.65
24.53
25.98
26.16
25.25
23.51
21.32
19.02
16.88
15.04
13.51
12.24
11.19
10.32
9.58
8.88
8.03
6.75
4.73
1.78
-2.13
-6.77
-11.75
-16.63
-21.08
-25.07
-28.8
-32.68
-37.04
-42.03
-47.56
-53.36
-59.06
-64.23
-68.35
-70.77
-70.82
-67.93
-61.85
-52.73
-41.14
-27.94
-14.12
-0.58
11.94
23.0
32.37
40.02
46.02
50.46
53.43
54.98
55.16
54.09
51.96
49.05
45.74
42.43
39.51
37.19
35.46
34.04
32.45
30.24
27.1
23.04
18.37
13.53
8.96
4.84
1.06
-2.67
-6.69
-11.22
-16.3
-21.84
-27.66
-33.53
-39.18
-44.19
-47.97
-49.86
-49.26
-45.87
-39.79
-31.53
-21.86
-11.6
-1.49
7.95
16.3
23.29
28.67
32.29
34.14
34.38
33.43
31.86
30.24
28.97
28.13
27.54
26.81
25.68
24.07
22.15
20.2
18.46
16.99
15.64
14.18
12.3
9.85
6.76
3.16
-0.72
-4.62
-8.27
-11.52
-14.4
-17.11
-19.99
-23.4
-27.55
-32.37
-37.47
-42.11
-45.39
-46.4
-44.47
-39.43
-31.65
-21.99
-11.58
-1.46
7.65
15.46
22.02
27.52
32.14
35.91
38.75
40.56
41.33
41.24
40.64
39.96
39.56
39.68
40.26
41.05
41.62
41.51
40.35
37.91
34.18
29.29
23.52
17.26
10.94
4.92
-0.52
-5.32
-9.52
-13.27
-16.73
-20.06
-23.42
-26.96
-30.89
-35.38
-40.48
-46.01
-51.51
-56.22
-59.22
-59.72
-57.24
-51.77
-43.73
-33.85
-22.92
-11.64
-0.54
9.98
19.49
27.49
33.46
37.01
38.12
37.18
34.94
32.18
29.48
27.1
24.99
23.06
21.34
20.03
19.34
19.29
19.58
19.68
19.11
17.61
15.25
12.35
9.28
6.26
3.37
0.54
-2.29
-5.23
-8.38
-11.89
-15.84
-20.28
-25.14
-30.28
-35.47
-40.41
-44.71
-47.9
-49.43
-48.77
-45.58
-39.77
-31.58
-21.63
-10.77
0.04
9.83
17.84
23.6
27.05
28.52
28.66
28.19
27.7
27.44
27.33
27.06
26.31
24.95
23.13
21.19
19.49
18.28
17.56
17.09
16.52
15.52
13.86
11.47
8.41
4.78
0.78
-3.4
-7.57
-11.56
-15.35
-18.99
-22.63
-26.47
-30.59
-34.83
-38.8
-41.8
-43.08
-42.01
-38.29
-32.06
-23.83
-14.4
-4.65
4.64
12.92
19.89
25.42
29.45
31.93
32.86
32.33
30.6
28.13
25.44
23.0
21.13
19.89
19.17
18.74
18.3
17.58
16.43
14.83
12.87
10.67
8.35
5.94
3.36
0.53
-2.63
-6.1
-9.81
-13.71
-17.75
-21.94
-26.26
-30.67
-35.14
-39.64
-44.01
-47.93
-50.79
-51.8
-50.24
-45.75
-38.52
-29.34
-19.24
-9.3
-0.28
7.45
13.9
19.26
23.67
27.2
29.78
31.29
31.68
31.05
29.73
28.15
26.74
25.75
25.19
24.81
24.3
23.39
22.02
20.37
18.68
17.18
15.94
14.75
13.26
11.1
8.02
4.08
-0.37
-4.87
-8.98
-12.5
-15.52
-18.33
-21.3
-24.75
-28.84
-33.56
-38.7
-43.83
-48.28
-51.27
-52.03
-50.01
-45.06
-37.43
-27.84
-17.24
-6.66
3.08
11.47
18.37
23.82
27.93
30.78
32.4
32.89
32.54
31.74
30.92
30.27
29.69
28.93
27.73
26.07
24.22
22.57
21.4
20.67
19.99
18.87
16.97
14.29
11.15
8.1
5.55
3.59
1.96
0.16
-2.26
-5.42
-9.07
-12.71
-15.87
-18.34
-20.25
-22.03
-24.21
-27.27
-31.39
-36.45
-41.91
-46.95
-50.6
-51.93
-50.27
-45.44
-37.73
-27.9
-16.93
-5.87
4.41
13.29
20.41
25.66
29.15
31.11
31.89
31.81
31.17
30.2
29.05
27.82
26.59
25.43
24.36
23.36
22.33
21.11
19.56
17.62
15.37
12.96
10.64
8.6
6.98
5.77
4.87
4.08
3.13
1.81
-0.06
-2.51
-5.47
-8.76
-12.19
-15.65
-19.15
-22.81
-26.75
-31.06
-35.69
-40.45
-44.98
-48.79
-51.36
-52.18
-50.9
-47.38
-41.68
-34.1
-25.11
-15.36
-5.66
3.14
10.35
15.55
18.77
20.39
21.0
21.15
21.2
21.29
21.38
21.43
21.39
21.27
21.07
20.8
20.44
20.01
19.56
19.13
18.69
18.14
17.32
16.05
14.25
11.92
9.17
6.1
2.73
-0.98
-5.07
-9.52
-14.17
-18.79
-23.15
-27.17
-30.89
-34.31
-37.29
-39.4
-40.07
-38.7
-35.0
-29.0
-21.14
-12.04
-2.42
7.01
15.59
22.73
27.98
31.11
32.22
31.66
29.99
27.79
25.54
23.53
21.89
20.6
19.56
18.62
17.58
16.32
14.74
12.88
10.9
8.91
6.91
4.77
2.22
-0.92
-4.74
-9.04
-13.54
-17.9
-21.87
-25.38
-28.6
-31.84
-35.49
-39.85
-44.93
-50.34
-55.34
-58.93
-60.21
-58.52
-53.64
-45.79
-35.61
-23.99
-11.99
-0.61
9.37
17.52
23.74
28.22
31.25
33.11
33.98
34.05
33.49
32.55
31.45
30.38
29.38
28.44
27.45
26.33
25.02
23.51
21.84
20.01
17.99
15.73
13.14
10.15
6.75
2.97
-1.07
-5.26
-9.47
-13.6
-17.57
-21.4
-25.21
-29.23
-33.7
-38.74
-44.2
-49.53
-53.86
-56.22
-55.77
-52.12
-45.36
-36.06
-25.1
-13.42
-1.92
8.7
17.93
25.49
31.3
35.42
37.99
39.21
39.26
38.37
36.8
34.91
33.07
31.58
30.53
29.78
29.03
28.01
26.59
24.83
22.9
20.93
18.9
16.67
14.1
11.15
7.95
4.7
1.56
-1.5
-4.61
-7.95
-11.6
-15.46
-19.33
-23.04
-26.57
-30.13
-34.0
-38.36
-43.05
-47.53
-50.9
-52.17
-50.53
-45.6
-37.5
-26.9
-14.77
-2.21
9.78
20.39
29.08
35.57
39.88
42.23
43.02
42.66
41.58
40.07
38.34
36.53
34.73
33.02
31.42
29.89
28.35
26.73
24.97
23.08
21.14
19.18
17.2
15.07
12.62
9.69
6.21
2.22
-2.14
-6.66
-11.11
-15.28
-19.08
-22.51
-25.67
-28.74
-31.88
-35.23
-38.84
-42.68
-46.54
-50.0
-52.39
-52.91
-50.84
-45.81
-37.96
-27.91
-16.65
-5.22
5.49
14.86
22.51
28.26
32.05
33.95
34.21
33.24
31.57
29.72
28.06
26.77
25.83
25.04
24.22
23.22
22.04
20.73
19.36
17.92
16.3
14.38
12.0
9.12
5.77
2.09
-1.75
-5.56
-9.22
-12.77
-16.39
-20.32
-24.77
-29.8
-35.14
-40.3
-44.59
-47.31
-47.87
-45.94
-41.42
-34.49
-25.58
-15.36
-4.66
5.73
15.15
23.15
29.49
34.06
36.77
37.65
36.83
34.65
31.59
28.26
25.13
22.47
20.23
18.22
16.26
14.35
12.68
11.53
11.02
10.97
10.91
10.23
8.45
5.4
1.29
-3.5
-8.5
-13.45
-18.26
-23.02
-27.87
-32.88
-38.07
-43.26
-48.12
-52.13
-54.65
-55.02
-52.79
-47.74
-40.05
-30.22
-19.0
-7.27
4.06
14.19
22.57
28.92
33.25
35.83
36.99
37.11
36.45
35.2
33.55
31.72
29.95
28.49
27.49
26.91
26.57
26.13
25.3
23.87
21.85
19.37
16.63
13.75
10.72
7.46
3.89
0.03
-3.96
-7.92
-11.68
-15.21
-18.54
-21.8
-25.16
-28.88
-33.18
-38.17
-43.63
-48.93
-53.05
-54.84
-53.35
-48.17
-39.6
-28.49
-16.05
-3.48
8.26
18.49
26.87
33.23
37.58
40.0
40.7
40.01
38.38
36.32
34.25
32.4
30.77
29.22
27.67
26.13
24.79
23.79
23.16
22.71
22.08
20.96
19.2
16.84
14.07
11.1
8.04
4.92
1.72
-1.57
-4.93
-8.36
-11.82
-15.29
-18.73
-22.08
-25.37
-28.69
-32.27
-36.35
-41.06
-46.21
-51.26
-55.38
-57.62
-57.18
-53.6
-46.88
-37.49
-26.24
-14.09
-2.05
9.03
18.5
25.97
31.27
34.51
36.04
36.41
36.18
35.79
35.51
35.35
35.17
34.83
34.25
33.53
32.77
32.06
31.37
30.53
29.34
27.67
25.53
23.1
20.65
18.42
16.52
14.83
13.07
10.89
8.09
4.68
0.97
-2.57
-5.39
-7.05
-7.29
-6.22
-4.4
-2.86
-2.94
-5.94
-12.61
-22.75
-35.02
-47.26
-57.08
-62.6
-62.94
-58.38
-50.07
-39.51
-28.1
-16.89
-6.5
2.67
10.39
16.47
20.81
23.47
24.8
25.24
25.31
25.32
25.28
24.97
24.1
22.53
20.46
18.29
16.49
15.31
14.66
14.21
13.59
12.51
10.94
8.94
6.62
3.99
1.05
-2.19
-5.66
-9.22
-12.69
-15.95
-18.91
-21.62
-24.18
-26.78
-29.66
-33.03
-36.92
-41.09
-44.96
-47.71
-48.53
-46.87
-42.65
-36.21
-28.22
-19.4
-10.38
-1.57
6.71
14.16
20.44
25.21
28.17
29.3
28.83
27.21
25.04
22.81
20.95
19.64
18.9
18.56
18.34
17.95
17.2
16.0
14.44
12.71
11.0
9.35
7.68
5.79
3.53
0.84
-2.17
-5.3
-8.37
-11.32
-14.21
-17.26
-20.72
-24.83
-29.69
-35.12
-40.69
-45.72
-49.44
-51.11
-50.2
-46.46
-40.0
-31.26
-20.95
-9.98
0.7
10.26
18.18
24.24
28.49
31.12
32.37
32.5
31.82
30.67
29.4
28.27
27.33
26.51
25.64
24.6
23.43
22.26
21.23
20.39
19.64
18.82
17.75
16.32
14.46
12.11
9.23
5.83
2.0
-2.08
-6.16
-10.08
-13.76
-17.27
-20.71
-24.15
-27.64
-31.2
-34.91
-38.88
-43.15
-47.59
-51.75
-54.86
-56.05
-54.5
-49.78
-41.96
-31.64
-19.82
-7.69
3.66
13.44
21.22
26.94
30.73
32.8
33.4
32.84
31.5
29.82
28.22
26.99
26.23
25.9
25.84
25.89
25.87
25.68
25.23
24.49
23.48
22.25
20.83
19.2
17.27
14.94
12.14
8.93
5.44
1.85
-1.73
-5.35
-9.09
-12.99
-16.93
-20.56
-23.47
-25.37
-26.35
-26.92
-27.91
-30.06
-33.73
-38.62
-43.9
-48.42
-51.12
-51.33
-48.86
-43.86
-36.76
-28.04
-18.22
-7.85
2.45
12.04
20.26
26.58
30.71
32.69
32.92
32.06
30.91
30.03
29.64
29.59
29.47
28.96
27.98
26.78
25.71
25.05
24.75
24.46
23.78
22.48
20.65
18.65
16.88
15.65
15.08
15.18
15.91
17.15
18.47
19.09
17.96
14.15
7.38
-1.71
-11.66
-20.74
-27.65
-32.05
-34.54
-36.27
-38.28
-40.94
-43.96
-46.55
-47.87
-47.28
-44.44
-39.23
-31.71
-22.14
-11.07
0.46
11.13
19.55
24.72
26.34
24.9
21.53
17.57
14.14
11.9
11.03
11.31
12.3
13.54
14.6
15.15
15.05
14.33
13.2
11.97
10.88
9.99
9.16
8.06
6.36
3.86
0.59
-3.16
-6.96
-10.44
-13.36
-15.81
-18.11
-20.7
-23.98
-28.04
-32.57
-36.89
-40.13
-41.41
-40.17
-36.27
-29.97
-21.88
-12.77
-3.48
5.19
12.54
18.1
21.71
23.55
24.11
23.96
23.57
23.16
22.73
22.17
21.42
20.54
19.65
18.77
17.84
16.72
15.33
13.78
12.33
11.18
10.32
9.43
8.0
5.58
2.06
-2.22
-6.66
-10.66
-13.88
-16.43
-18.74
-21.4
-24.88
-29.34
-34.67
-40.44
-46.0
-50.56
-53.34
-53.68
-51.16
-45.78
-37.91
-28.27
-17.78
-7.38
2.15
10.32
16.91
22.0
25.74
28.33
29.85
30.35
29.94
28.79
27.21
25.57
24.18
23.23
22.75
22.6
22.59
22.47
22.0
20.98
19.36
17.17
14.55
11.59
8.38
4.93
1.32
-2.35
-5.89
-9.13
-12.01
-14.63
-17.21
-20.01
-23.28
-27.17
-31.77
-37.02
-42.64
-48.09
-52.58
-55.16
-55.06
-51.84
-45.56
-36.71
-26.11
-14.64
-3.16
7.61
17.09
24.85
30.63
34.36
36.2
36.55
35.91
34.84
33.79
33.03
32.61
32.44
32.36
32.25
32.05
31.73
31.25
30.48
29.25
27.49
25.21
22.58
19.83
17.1
14.36
11.44
8.11
4.22
-0.21
-4.96
-9.71
-14.09
-17.85
-20.97
-23.58
-26.09
-28.99
-32.67
-37.32
-42.68
-48.07
-52.49
-54.87
-54.33
-50.42
-43.3
-33.62
-22.43
-10.95
-0.29
8.77
15.93
21.33
25.44
28.78
31.68
34.18
36.07
37.04
36.98
36.06
34.69
33.33
32.3
31.63
31.13
30.51
29.57
28.21
26.46
24.44
22.29
20.22
18.28
16.42
14.41
11.89
8.61
4.6
0.15
-4.23
-8.11
-11.35
-14.09
-16.65
-19.38
-22.55
-26.35
-30.91
-36.23
-41.99
-47.51
-51.73
-53.56
-52.19
-47.44
-39.78
-30.07
-19.33
-8.45
1.85
11.04
18.65
24.36
28.07
29.92
30.32
29.81
28.94
28.08
27.43
27.0
26.7
26.41
26.05
25.52
24.82
23.96
23.0
22.03
21.01
19.77
17.94
15.17
11.26
6.39
1.11
-3.91
-8.17
-11.54
-14.36
-17.11
-20.19
-23.71
-27.52
-31.43
-35.26
-38.92
-42.16
-44.54
-45.36
-43.95
-39.93
-33.38
-24.87
-15.26
-5.45
3.8
11.95
18.66
23.71
27.02
28.6
28.64
27.47
25.57
23.49
21.67
20.42
19.79
19.56
19.42
19.1
18.49
17.67
16.81
15.99
15.07
13.7
11.46
8.13
3.81
-1.04
-5.8
-9.96
-13.31
-16.02
-18.45
-21.06
-24.17
-27.99
-32.58
-37.86
-43.55
-49.14
-53.79
-56.56
-56.58
-53.34
-46.89
-37.84
-27.16
-15.95
-5.16
4.56
12.83
19.51
24.6
28.18
30.42
31.55
31.84
31.62
31.15
30.57
30.01
29.5
29.03
28.54
27.97
27.22
26.28
25.16
23.91
22.53
20.95
18.98
16.47
13.36
9.76
5.89
2.0
-1.79
-5.5
-9.21
-12.98
-16.79
-20.6
-24.41
-28.36
-32.65
-37.42
-42.5
-47.43
-51.4
-53.5
-52.99
-49.49
-43.06
-34.19
-23.65
-12.34
-1.17
9.08
17.83
24.77
29.86
33.28
35.3
36.25
36.42
36.06
35.35
34.48
33.61
32.8
32.04
31.21
30.21
28.98
27.53
25.92
24.24
22.52
20.75
18.85
16.74
14.37
11.7
8.75
5.5
1.93
-1.92
-5.94
-9.94
-13.68
-17.03
-19.98
-22.76
-25.71
-29.25
-33.59
-38.67
-44.01
-48.81
-52.13
-53.13
-51.29
-46.55
-39.22
-29.94
-19.5
-8.66
1.86
11.5
19.84
26.62
31.72
35.1
36.83
37.07
36.18
34.62
32.92
31.51
30.58
30.04
29.57
28.89
27.87
26.6
25.31
24.15
23.08
21.84
20.11
17.73
14.76
11.45
8.13
5.02
2.12
-0.73
-3.78
-7.19
-10.99
-15.03
-19.12
-23.09
-26.9
-30.59
-34.26
-37.96
-41.57
-44.85
-47.41
-48.87
-48.81
-46.9
-42.88
-36.69
-28.49
-18.83
-8.45
1.75
10.99
18.73
24.6
28.42
30.12
29.77
27.7
24.54
21.11
18.19
16.33
15.69
16.13
17.31
18.89
20.57
22.02
22.92
22.96
21.98
20.02
17.36
14.34
11.24
8.14
5.0
1.64
-2.06
-6.11
-10.48
-15.09
-19.85
-24.74
-29.68
-34.49
-38.87
-42.32
-44.25
-44.15
-41.69
-36.85
-29.95
-21.54
-12.27
-2.77
6.42
14.84
22.13
27.9
31.89
33.96
34.14
32.77
30.35
27.51
24.76
22.46
20.67
19.27
18.01
16.69
15.26
13.76
12.26
10.76
9.19
7.35
5.06
2.2
-1.19
-4.91
-8.7
-12.31
-15.66
-18.85
-22.08
-25.57
-29.47
-33.8
-38.49
-43.37
-48.11
-52.23
-55.07
-55.86
-53.91
-48.91
-41.02
-30.9
-19.57
-8.08
2.64
11.99
19.66
25.6
29.9
32.67
34.11
34.4
33.78
32.6
31.21
29.98
29.12
28.62
28.3
27.86
27.04
25.75
24.08
22.16
20.17
18.15
16.04
13.71
11.05
8.05
4.76
1.28
-2.2
-5.57
-8.7
-11.57
-14.27
-16.99
-20.01
-23.64
-28.1
-33.4
-39.2
-44.74
-48.93
-50.59
-48.78
-43.19
-34.23
-22.98
-10.86
0.7
10.68
18.55
24.35
28.42
31.22
33.1
34.21
34.6
34.29
33.43
32.29
31.15
30.16
29.31
28.39
27.22
25.74
24.04
22.36
20.85
19.56
18.32
16.91
15.13
12.91
10.28
7.35
4.26
1.06
-2.22
-5.58
-9.03
-12.51
-15.97
-19.3
-22.42
-25.33
-28.18
-31.22
-34.76
-38.96
-43.73
-48.55
-52.62
-54.96
-54.72
-51.44
-45.14
-36.37
-26.01
-15.06
-4.47
5.11
13.26
19.77
24.57
27.68
29.18
29.34
28.58
27.42
26.37
25.73
25.61
25.89
26.33
26.7
26.8
26.54
25.89
24.9
23.63
22.19
20.59
18.84
16.93
14.91
12.84
10.8
8.69
6.29
3.31
-0.44
-4.85
-9.49
-13.85
-17.6
-20.79
-23.84
-27.3
-31.45
-36.1
-40.52
-43.74
-44.88
-43.45
-39.42
-33.11
-25.04
-15.69
-5.61
4.68
14.55
23.34
30.42
35.4
38.19
38.98
38.26
36.55
34.35
32.04
29.84
27.81
25.88
23.91
21.79
19.51
17.2
15.02
13.18
11.7
10.51
9.44
8.32
7.01
5.4
3.32
0.58
-3.02
-7.52
-12.77
-18.41
-24.1
-29.63
-34.98
-40.18
-45.05
-49.1
-51.65
-52.05
-49.96
-45.52
-39.19
-31.56
-23.11
-14.23
-5.24
3.41
11.13
17.36
21.6
23.77
24.11
23.1
21.34
19.31
17.39
15.73
14.39
13.29
12.37
11.49
10.49
9.18
7.36
4.96
2.04
-1.09
-4.05
-6.51
-8.4
-9.93
-11.46
-13.33
-15.7
-18.52
-21.57
-24.66
-27.61
